;content of C:\Users\HF1N8D2\AppData\Local\Temp\92fetmp887375713.raw - (Diffrac Plus V4 file)
_FILEVERSION = 3
_SAMPLE = Commander Sample ID
_+SAMPLE
_USER = Lab Manager
_GONIOMETER_CODE = 21
_STAGE_CODE = 7
; Goniometer : D8 theta/theta, stage : Chi drive
_SAMPLE_CHANGER_CODE = 0
_ATTACHMENTS_CODE = 0
_GONIOMETER_RADIUS = 280
_MONOCHROMATOR = 0
; Incident beam monochromator : None
_BETA_FILTER = N
_ANALYZER_CODE = 0
; Received beam analyzer : None
_DATEMEASURED = 01-Aug-2021 15:42:48
_RUNTIME = 7.858514
_WL_UNIT = A
_WL1 = 1.5406
_WL2 = 1.54439
_WL3 = 1.39222
_WLRATIO = 0.5
_ANODE = Cu
_V4_INF_USER = Lab Manager
_V4_INF_SAMPLEID = Commander Sample ID
_V4_INF_CREATOR = V5Converter
_V4_INF_CREATOR_VERSION = 6.1.2.0

; Data for range 1
_DRIVE = COUPLED
_STEPTIME = 79.5
_STEPSIZE = 0.050057
_STEPMODE = C
_START = 5.0001
_THETA = 2.50005
_2THETA = 5.0001
_DETECTORSLIT = out
_TIMESTARTED = 0
_ROTATION_SPEED = 5
_KV = 40
_MA = 25
_RANGE_WL = 1.5406
_3DPLANE = 0
_V4_PSD2THETA = 9999
_V4_PSDCHANNEL1 = 0
_V4_PSDAPERTURE = 2.436459
_V4_PSDTYPE = 5
_V4_PSDFIXED = 0
_V4_COUNTERS_MASK = 1
_V4_DRIVES_MASK = 0
_V4_ENCODERS_MASK = 0
_2THETACOUNTS = 1
; 2THETA	Cnt2_D1	
5.000100	92.000000	
5.050157	105.000000	
5.100214	97.000000	
5.150272	102.000000	
5.200329	108.000000	
5.250386	106.000000	
5.300443	92.000000	
5.350501	113.000000	
5.400558	123.000000	
5.450615	96.000000	
5.500672	116.000000	
5.550729	87.000000	
5.600787	103.000000	
5.650844	101.000000	
5.700901	83.000000	
5.750958	84.000000	
5.801016	95.000000	
5.851073	90.000000	
5.901130	85.000000	
5.951187	106.000000	
6.001244	98.000000	
6.051302	100.000000	
6.101359	109.000000	
6.151416	110.000000	
6.201473	88.000000	
6.251531	95.000000	
6.301588	88.000000	
6.351645	95.000000	
6.401702	96.000000	
6.451759	86.000000	
6.501817	88.000000	
6.551874	112.000000	
6.601931	113.000000	
6.651988	111.000000	
6.702046	110.000000	
6.752103	88.000000	
6.802160	94.000000	
6.852217	99.000000	
6.902274	102.000000	
6.952332	81.000000	
7.002389	111.000000	
7.052446	112.000000	
7.102503	113.000000	
7.152560	122.000000	
7.202618	108.000000	
7.252675	120.000000	
7.302732	103.000000	
7.352789	93.000000	
7.402847	134.000000	
7.452904	115.000000	
7.502961	120.000000	
7.553018	121.000000	
7.603075	106.000000	
7.653133	117.000000	
7.703190	105.000000	
7.753247	119.000000	
7.803304	138.000000	
7.853362	118.000000	
7.903419	113.000000	
7.953476	127.000000	
8.003533	108.000000	
8.053590	110.000000	
8.103648	109.000000	
8.153705	108.000000	
8.203762	122.000000	
8.253819	132.000000	
8.303877	122.000000	
8.353934	127.000000	
8.403991	112.000000	
8.454048	112.000000	
8.504105	133.000000	
8.554163	131.000000	
8.604220	128.000000	
8.654277	110.000000	
8.704334	119.000000	
8.754392	140.000000	
8.804449	98.000000	
8.854506	117.000000	
8.904563	107.000000	
8.954620	143.000000	
9.004678	134.000000	
9.054735	127.000000	
9.104792	141.000000	
9.154849	114.000000	
9.204907	132.000000	
9.254964	163.000000	
9.305021	134.000000	
9.355078	124.000000	
9.405135	133.000000	
9.455193	124.000000	
9.505250	139.000000	
9.555307	152.000000	
9.605364	151.000000	
9.655422	124.000000	
9.705479	144.000000	
9.755536	137.000000	
9.805593	134.000000	
9.855650	138.000000	
9.905708	135.000000	
9.955765	124.000000	
10.005822	133.000000	
10.055879	118.000000	
10.105937	148.000000	
10.155994	147.000000	
10.206051	144.000000	
10.256108	155.000000	
10.306165	145.000000	
10.356223	157.000000	
10.406280	143.000000	
10.456337	154.000000	
10.506394	161.000000	
10.556452	143.000000	
10.606509	155.000000	
10.656566	162.000000	
10.706623	159.000000	
10.756680	154.000000	
10.806738	153.000000	
10.856795	163.000000	
10.906852	157.000000	
10.956909	130.000000	
11.006967	192.000000	
11.057024	186.000000	
11.107081	157.000000	
11.157138	166.000000	
11.207195	167.000000	
11.257253	164.000000	
11.307310	183.000000	
11.357367	171.000000	
11.407424	175.000000	
11.457481	176.000000	
11.507539	172.000000	
11.557596	171.000000	
11.607653	163.000000	
11.657710	173.000000	
11.707768	179.000000	
11.757825	174.000000	
11.807882	168.000000	
11.857939	159.000000	
11.907996	177.000000	
11.958054	146.000000	
12.008111	146.000000	
12.058168	155.000000	
12.108225	165.000000	
12.158283	191.000000	
12.208340	151.000000	
12.258397	139.000000	
12.308454	185.000000	
12.358511	179.000000	
12.408569	181.000000	
12.458626	169.000000	
12.508683	165.000000	
12.558740	145.000000	
12.608798	158.000000	
12.658855	186.000000	
12.708912	183.000000	
12.758969	167.000000	
12.809026	174.000000	
12.859084	178.000000	
12.909141	181.000000	
12.959198	169.000000	
13.009255	160.000000	
13.059313	166.000000	
13.109370	170.000000	
13.159427	156.000000	
13.209484	169.000000	
13.259541	187.000000	
13.309599	201.000000	
13.359656	219.000000	
13.409713	238.000000	
13.459770	243.000000	
13.509828	232.000000	
13.559885	203.000000	
13.609942	221.000000	
13.659999	158.000000	
13.710056	152.000000	
13.760114	174.000000	
13.810171	150.000000	
13.860228	169.000000	
13.910285	162.000000	
13.960343	145.000000	
14.010400	202.000000	
14.060457	172.000000	
14.110514	148.000000	
14.160571	166.000000	
14.210629	170.000000	
14.260686	163.000000	
14.310743	148.000000	
14.360800	163.000000	
14.410858	159.000000	
14.460915	157.000000	
14.510972	162.000000	
14.561029	135.000000	
14.611086	137.000000	
14.661144	155.000000	
14.711201	159.000000	
14.761258	155.000000	
14.811315	147.000000	
14.861373	156.000000	
14.911430	147.000000	
14.961487	143.000000	
15.011544	170.000000	
15.061601	177.000000	
15.111659	164.000000	
15.161716	172.000000	
15.211773	164.000000	
15.261830	153.000000	
15.311888	163.000000	
15.361945	182.000000	
15.412002	169.000000	
15.462059	175.000000	
15.512116	162.000000	
15.562174	165.000000	
15.612231	156.000000	
15.662288	172.000000	
15.712345	158.000000	
15.762402	157.000000	
15.812460	174.000000	
15.862517	174.000000	
15.912574	149.000000	
15.962631	174.000000	
16.012689	171.000000	
16.062746	165.000000	
16.112803	184.000000	
16.162860	170.000000	
16.212917	193.000000	
16.262975	192.000000	
16.313032	152.000000	
16.363089	178.000000	
16.413146	169.000000	
16.463204	171.000000	
16.513261	174.000000	
16.563318	172.000000	
16.613375	163.000000	
16.663432	161.000000	
16.713490	173.000000	
16.763547	160.000000	
16.813604	163.000000	
16.863661	176.000000	
16.913719	189.000000	
16.963776	178.000000	
17.013833	171.000000	
17.063890	163.000000	
17.113947	147.000000	
17.164005	173.000000	
17.214062	159.000000	
17.264119	173.000000	
17.314176	184.000000	
17.364234	170.000000	
17.414291	147.000000	
17.464348	161.000000	
17.514405	169.000000	
17.564462	179.000000	
17.614520	161.000000	
17.664577	163.000000	
17.714634	160.000000	
17.764691	191.000000	
17.814749	183.000000	
17.864806	172.000000	
17.914863	178.000000	
17.964920	152.000000	
18.014977	186.000000	
18.065035	167.000000	
18.115092	179.000000	
18.165149	167.000000	
18.215206	164.000000	
18.265264	165.000000	
18.315321	166.000000	
18.365378	156.000000	
18.415435	186.000000	
18.465492	168.000000	
18.515550	182.000000	
18.565607	182.000000	
18.615664	198.000000	
18.665721	170.000000	
18.715779	169.000000	
18.765836	193.000000	
18.815893	194.000000	
18.865950	162.000000	
18.916007	191.000000	
18.966065	178.000000	
19.016122	203.000000	
19.066179	183.000000	
19.116236	199.000000	
19.166294	203.000000	
19.216351	205.000000	
19.266408	194.000000	
19.316465	176.000000	
19.366522	226.000000	
19.416580	207.000000	
19.466637	214.000000	
19.516694	276.000000	
19.566751	261.000000	
19.616809	283.000000	
19.666866	278.000000	
19.716923	261.000000	
19.766980	240.000000	
19.817037	200.000000	
19.867095	197.000000	
19.917152	209.000000	
19.967209	167.000000	
20.017266	197.000000	
20.067323	191.000000	
20.117381	221.000000	
20.167438	185.000000	
20.217495	186.000000	
20.267552	191.000000	
20.317610	191.000000	
20.367667	201.000000	
20.417724	200.000000	
20.467781	208.000000	
20.517838	229.000000	
20.567896	227.000000	
20.617953	236.000000	
20.668010	240.000000	
20.718067	250.000000	
20.768125	263.000000	
20.818182	259.000000	
20.868239	221.000000	
20.918296	193.000000	
20.968353	213.000000	
21.018411	220.000000	
21.068468	226.000000	
21.118525	222.000000	
21.168582	222.000000	
21.218640	226.000000	
21.268697	209.000000	
21.318754	226.000000	
21.368811	235.000000	
21.418868	218.000000	
21.468926	232.000000	
21.518983	226.000000	
21.569040	190.000000	
21.619097	188.000000	
21.669155	196.000000	
21.719212	195.000000	
21.769269	233.000000	
21.819326	173.000000	
21.869383	194.000000	
21.919441	193.000000	
21.969498	215.000000	
22.019555	191.000000	
22.069612	196.000000	
22.119670	226.000000	
22.169727	239.000000	
22.219784	220.000000	
22.269841	201.000000	
22.319898	202.000000	
22.369956	224.000000	
22.420013	208.000000	
22.470070	216.000000	
22.520127	220.000000	
22.570185	233.000000	
22.620242	226.000000	
22.670299	208.000000	
22.720356	217.000000	
22.770413	225.000000	
22.820471	223.000000	
22.870528	218.000000	
22.920585	220.000000	
22.970642	222.000000	
23.020700	202.000000	
23.070757	224.000000	
23.120814	257.000000	
23.170871	258.000000	
23.220928	259.000000	
23.270986	228.000000	
23.321043	256.000000	
23.371100	257.000000	
23.421157	241.000000	
23.471215	220.000000	
23.521272	250.000000	
23.571329	248.000000	
23.621386	234.000000	
23.671443	216.000000	
23.721501	213.000000	
23.771558	237.000000	
23.821615	228.000000	
23.871672	265.000000	
23.921730	245.000000	
23.971787	203.000000	
24.021844	243.000000	
24.071901	218.000000	
24.121958	225.000000	
24.172016	204.000000	
24.222073	240.000000	
24.272130	238.000000	
24.322187	202.000000	
24.372244	189.000000	
24.422302	232.000000	
24.472359	220.000000	
24.522416	228.000000	
24.572473	217.000000	
24.622531	199.000000	
24.672588	215.000000	
24.722645	214.000000	
24.772702	217.000000	
24.822759	216.000000	
24.872817	224.000000	
24.922874	213.000000	
24.972931	274.000000	
25.022988	222.000000	
25.073046	235.000000	
25.123103	252.000000	
25.173160	254.000000	
25.223217	221.000000	
25.273274	241.000000	
25.323332	241.000000	
25.373389	238.000000	
25.423446	261.000000	
25.473503	232.000000	
25.523561	286.000000	
25.573618	293.000000	
25.623675	298.000000	
25.673732	297.000000	
25.723789	323.000000	
25.773847	294.000000	
25.823904	298.000000	
25.873961	273.000000	
25.924018	270.000000	
25.974076	301.000000	
26.024133	280.000000	
26.074190	244.000000	
26.124247	228.000000	
26.174304	251.000000	
26.224362	232.000000	
26.274419	240.000000	
26.324476	223.000000	
26.374533	247.000000	
26.424591	206.000000	
26.474648	234.000000	
26.524705	239.000000	
26.574762	228.000000	
26.624819	254.000000	
26.674877	267.000000	
26.724934	219.000000	
26.774991	284.000000	
26.825048	286.000000	
26.875106	294.000000	
26.925163	267.000000	
26.975220	266.000000	
27.025277	280.000000	
27.075334	278.000000	
27.125392	264.000000	
27.175449	238.000000	
27.225506	248.000000	
27.275563	244.000000	
27.325621	203.000000	
27.375678	210.000000	
27.425735	201.000000	
27.475792	260.000000	
27.525849	225.000000	
27.575907	257.000000	
27.625964	253.000000	
27.676021	238.000000	
27.726078	241.000000	
27.776136	253.000000	
27.826193	238.000000	
27.876250	247.000000	
27.926307	247.000000	
27.976364	339.000000	
28.026422	492.000000	
28.076479	717.000000	
28.126536	882.000000	
28.176593	932.000000	
28.226651	906.000000	
28.276708	858.000000	
28.326765	706.000000	
28.376822	523.000000	
28.426879	444.000000	
28.476937	335.000000	
28.526994	284.000000	
28.577051	276.000000	
28.627108	241.000000	
28.677165	221.000000	
28.727223	205.000000	
28.777280	222.000000	
28.827337	207.000000	
28.877394	262.000000	
28.927452	213.000000	
28.977509	239.000000	
29.027566	237.000000	
29.077623	281.000000	
29.127680	246.000000	
29.177738	250.000000	
29.227795	232.000000	
29.277852	262.000000	
29.327909	303.000000	
29.377967	372.000000	
29.428024	503.000000	
29.478081	606.000000	
29.528138	597.000000	
29.578195	703.000000	
29.628253	692.000000	
29.678310	614.000000	
29.728367	526.000000	
29.778424	507.000000	
29.828482	422.000000	
29.878539	460.000000	
29.928596	442.000000	
29.978653	444.000000	
30.028710	395.000000	
30.078768	415.000000	
30.128825	365.000000	
30.178882	362.000000	
30.228939	364.000000	
30.278997	315.000000	
30.329054	299.000000	
30.379111	266.000000	
30.429168	268.000000	
30.479225	299.000000	
30.529283	305.000000	
30.579340	294.000000	
30.629397	292.000000	
30.679454	291.000000	
30.729512	302.000000	
30.779569	284.000000	
30.829626	244.000000	
30.879683	287.000000	
30.929740	267.000000	
30.979798	265.000000	
31.029855	269.000000	
31.079912	282.000000	
31.129969	274.000000	
31.180027	266.000000	
31.230084	245.000000	
31.280141	234.000000	
31.330198	210.000000	
31.380255	207.000000	
31.430313	182.000000	
31.480370	223.000000	
31.530427	217.000000	
31.580484	215.000000	
31.630542	215.000000	
31.680599	224.000000	
31.730656	212.000000	
31.780713	234.000000	
31.830770	259.000000	
31.880828	293.000000	
31.930885	294.000000	
31.980942	306.000000	
32.030999	316.000000	
32.081057	323.000000	
32.131114	292.000000	
32.181171	268.000000	
32.231228	241.000000	
32.281285	257.000000	
32.331343	261.000000	
32.381400	268.000000	
32.431457	260.000000	
32.481514	230.000000	
32.531572	251.000000	
32.581629	240.000000	
32.631686	221.000000	
32.681743	227.000000	
32.731800	180.000000	
32.781858	205.000000	
32.831915	216.000000	
32.881972	203.000000	
32.932029	201.000000	
32.982086	214.000000	
33.032144	231.000000	
33.082201	254.000000	
33.132258	274.000000	
33.182315	264.000000	
33.232373	304.000000	
33.282430	312.000000	
33.332487	359.000000	
33.382544	394.000000	
33.432601	452.000000	
33.482659	420.000000	
33.532716	423.000000	
33.582773	417.000000	
33.632830	395.000000	
33.682888	355.000000	
33.732945	330.000000	
33.783002	290.000000	
33.833059	329.000000	
33.883116	270.000000	
33.933174	334.000000	
33.983231	420.000000	
34.033288	582.000000	
34.083345	625.000000	
34.133403	764.000000	
34.183460	766.000000	
34.233517	727.000000	
34.283574	617.000000	
34.333631	488.000000	
34.383689	379.000000	
34.433746	347.000000	
34.483803	298.000000	
34.533860	265.000000	
34.583918	237.000000	
34.633975	218.000000	
34.684032	239.000000	
34.734089	196.000000	
34.784146	194.000000	
34.834204	185.000000	
34.884261	204.000000	
34.934318	206.000000	
34.984375	168.000000	
35.034433	187.000000	
35.084490	183.000000	
35.134547	188.000000	
35.184604	172.000000	
35.234661	196.000000	
35.284719	223.000000	
35.334776	171.000000	
35.384833	225.000000	
35.434890	187.000000	
35.484948	192.000000	
35.535005	216.000000	
35.585062	204.000000	
35.635119	175.000000	
35.685176	195.000000	
35.735234	197.000000	
35.785291	169.000000	
35.835348	187.000000	
35.885405	188.000000	
35.935463	201.000000	
35.985520	201.000000	
36.035577	207.000000	
36.085634	206.000000	
36.135691	231.000000	
36.185749	238.000000	
36.235806	224.000000	
36.285863	188.000000	
36.335920	217.000000	
36.385978	191.000000	
36.436035	167.000000	
36.486092	180.000000	
36.536149	174.000000	
36.586206	197.000000	
36.636264	210.000000	
36.686321	174.000000	
36.736378	213.000000	
36.786435	181.000000	
36.836493	225.000000	
36.886550	194.000000	
36.936607	207.000000	
36.986664	181.000000	
37.036721	195.000000	
37.086779	215.000000	
37.136836	149.000000	
37.186893	184.000000	
37.236950	190.000000	
37.287007	183.000000	
37.337065	199.000000	
37.387122	191.000000	
37.437179	202.000000	
37.487236	174.000000	
37.537294	197.000000	
37.587351	192.000000	
37.637408	186.000000	
37.687465	187.000000	
37.737522	202.000000	
37.787580	202.000000	
37.837637	205.000000	
37.887694	170.000000	
37.937751	189.000000	
37.987809	191.000000	
38.037866	192.000000	
38.087923	208.000000	
38.137980	206.000000	
38.188037	186.000000	
38.238095	160.000000	
38.288152	185.000000	
38.338209	167.000000	
38.388266	184.000000	
38.438324	182.000000	
38.488381	185.000000	
38.538438	178.000000	
38.588495	163.000000	
38.638552	166.000000	
38.688610	190.000000	
38.738667	175.000000	
38.788724	185.000000	
38.838781	184.000000	
38.888839	183.000000	
38.938896	230.000000	
38.988953	198.000000	
39.039010	200.000000	
39.089067	219.000000	
39.139125	200.000000	
39.189182	228.000000	
39.239239	215.000000	
39.289296	216.000000	
39.339354	211.000000	
39.389411	225.000000	
39.439468	245.000000	
39.489525	273.000000	
39.539582	304.000000	
39.589640	327.000000	
39.639697	317.000000	
39.689754	266.000000	
39.739811	247.000000	
39.789869	215.000000	
39.839926	227.000000	
39.889983	248.000000	
39.940040	212.000000	
39.990097	231.000000	
40.040155	223.000000	
40.090212	224.000000	
40.140269	258.000000	
40.190326	252.000000	
40.240384	263.000000	
40.290441	236.000000	
40.340498	234.000000	
40.390555	233.000000	
40.440612	281.000000	
40.490670	231.000000	
40.540727	242.000000	
40.590784	242.000000	
40.640841	261.000000	
40.690899	259.000000	
40.740956	315.000000	
40.791013	280.000000	
40.841070	294.000000	
40.891127	303.000000	
40.941185	317.000000	
40.991242	349.000000	
41.041299	296.000000	
41.091356	276.000000	
41.141413	280.000000	
41.191471	258.000000	
41.241528	266.000000	
41.291585	258.000000	
41.341642	232.000000	
41.391700	237.000000	
41.441757	217.000000	
41.491814	237.000000	
41.541871	257.000000	
41.591928	218.000000	
41.641986	210.000000	
41.692043	246.000000	
41.742100	215.000000	
41.792157	271.000000	
41.842215	301.000000	
41.892272	332.000000	
41.942329	344.000000	
41.992386	302.000000	
42.042443	325.000000	
42.092501	298.000000	
42.142558	269.000000	
42.192615	236.000000	
42.242672	231.000000	
42.292730	260.000000	
42.342787	201.000000	
42.392844	235.000000	
42.442901	212.000000	
42.492958	227.000000	
42.543016	224.000000	
42.593073	226.000000	
42.643130	251.000000	
42.693187	220.000000	
42.743245	243.000000	
42.793302	244.000000	
42.843359	250.000000	
42.893416	239.000000	
42.943473	247.000000	
42.993531	219.000000	
43.043588	235.000000	
43.093645	232.000000	
43.143702	220.000000	
43.193760	247.000000	
43.243817	262.000000	
43.293874	278.000000	
43.343931	272.000000	
43.393988	266.000000	
43.444046	246.000000	
43.494103	222.000000	
43.544160	224.000000	
43.594217	215.000000	
43.644275	242.000000	
43.694332	209.000000	
43.744389	257.000000	
43.794446	209.000000	
43.844503	241.000000	
43.894561	229.000000	
43.944618	210.000000	
43.994675	228.000000	
44.044732	215.000000	
44.094790	184.000000	
44.144847	195.000000	
44.194904	219.000000	
44.244961	177.000000	
44.295018	194.000000	
44.345076	188.000000	
44.395133	186.000000	
44.445190	188.000000	
44.495247	183.000000	
44.545305	175.000000	
44.595362	198.000000	
44.645419	211.000000	
44.695476	273.000000	
44.745533	265.000000	
44.795591	297.000000	
44.845648	285.000000	
44.895705	317.000000	
44.945762	258.000000	
44.995820	288.000000	
45.045877	253.000000	
45.095934	251.000000	
45.145991	284.000000	
45.196048	268.000000	
45.246106	276.000000	
45.296163	250.000000	
45.346220	240.000000	
45.396277	208.000000	
45.446334	222.000000	
45.496392	207.000000	
45.546449	214.000000	
45.596506	198.000000	
45.646563	198.000000	
45.696621	208.000000	
45.746678	213.000000	
45.796735	222.000000	
45.846792	219.000000	
45.896849	210.000000	
45.946907	189.000000	
45.996964	209.000000	
46.047021	202.000000	
46.097078	201.000000	
46.147136	242.000000	
46.197193	220.000000	
46.247250	225.000000	
46.297307	239.000000	
46.347364	233.000000	
46.397422	241.000000	
46.447479	219.000000	
46.497536	223.000000	
46.547593	224.000000	
46.597651	217.000000	
46.647708	196.000000	
46.697765	217.000000	
46.747822	200.000000	
46.797879	214.000000	
46.847937	198.000000	
46.897994	222.000000	
46.948051	218.000000	
46.998108	214.000000	
47.048166	219.000000	
47.098223	217.000000	
47.148280	208.000000	
47.198337	223.000000	
47.248394	220.000000	
47.298452	247.000000	
47.348509	242.000000	
47.398566	213.000000	
47.448623	254.000000	
47.498681	304.000000	
47.548738	261.000000	
47.598795	264.000000	
47.648852	285.000000	
47.698909	264.000000	
47.748967	246.000000	
47.799024	210.000000	
47.849081	214.000000	
47.899138	215.000000	
47.949196	181.000000	
47.999253	187.000000	
48.049310	179.000000	
48.099367	180.000000	
48.149424	202.000000	
48.199482	206.000000	
48.249539	197.000000	
48.299596	221.000000	
48.349653	270.000000	
48.399711	288.000000	
48.449768	324.000000	
48.499825	361.000000	
48.549882	356.000000	
48.599939	358.000000	
48.649997	352.000000	
48.700054	322.000000	
48.750111	328.000000	
48.800168	281.000000	
48.850226	283.000000	
48.900283	235.000000	
48.950340	212.000000	
49.000397	209.000000	
49.050454	203.000000	
49.100512	194.000000	
49.150569	172.000000	
49.200626	202.000000	
49.250683	178.000000	
49.300741	162.000000	
49.350798	197.000000	
49.400855	180.000000	
49.450912	195.000000	
49.500969	192.000000	
49.551027	210.000000	
49.601084	200.000000	
49.651141	210.000000	
49.701198	213.000000	
49.751255	214.000000	
49.801313	222.000000	
49.851370	208.000000	
49.901427	241.000000	
49.951484	256.000000	
50.001542	231.000000	
50.051599	259.000000	
50.101656	184.000000	
50.151713	197.000000	
50.201770	223.000000	
50.251828	188.000000	
50.301885	207.000000	
50.351942	195.000000	
50.401999	193.000000	
50.452057	185.000000	
50.502114	168.000000	
50.552171	181.000000	
50.602228	184.000000	
50.652285	176.000000	
50.702343	198.000000	
50.752400	177.000000	
50.802457	206.000000	
50.852514	181.000000	
50.902572	208.000000	
50.952629	191.000000	
51.002686	197.000000	
51.052743	201.000000	
51.102800	198.000000	
51.152858	215.000000	
51.202915	164.000000	
51.252972	223.000000	
51.303029	174.000000	
51.353087	194.000000	
51.403144	171.000000	
51.453201	173.000000	
51.503258	167.000000	
51.553315	176.000000	
51.603373	168.000000	
51.653430	174.000000	
51.703487	185.000000	
51.753544	162.000000	
51.803602	148.000000	
51.853659	170.000000	
51.903716	164.000000	
51.953773	170.000000	
52.003830	165.000000	
52.053888	199.000000	
52.103945	188.000000	
52.154002	188.000000	
52.204059	217.000000	
52.254117	220.000000	
52.304174	221.000000	
52.354231	235.000000	
52.404288	213.000000	
52.454345	235.000000	
52.504403	191.000000	
52.554460	199.000000	
52.604517	171.000000	
52.654574	170.000000	
52.704632	165.000000	
52.754689	156.000000	
52.804746	155.000000	
52.854803	172.000000	
52.904860	151.000000	
52.954918	169.000000	
53.004975	150.000000	
53.055032	138.000000	
53.105089	174.000000	
53.155147	153.000000	
53.205204	162.000000	
53.255261	172.000000	
53.305318	156.000000	
53.355375	192.000000	
53.405433	197.000000	
53.455490	227.000000	
53.505547	212.000000	
53.555604	215.000000	
53.605662	206.000000	
53.655719	214.000000	
53.705776	209.000000	
53.755833	204.000000	
53.805890	178.000000	
53.855948	200.000000	
53.906005	190.000000	
53.956062	184.000000	
54.006119	213.000000	
54.056176	208.000000	
54.106234	212.000000	
54.156291	216.000000	
54.206348	207.000000	
54.256405	181.000000	
54.306463	211.000000	
54.356520	199.000000	
54.406577	195.000000	
54.456634	162.000000	
54.506691	203.000000	
54.556749	183.000000	
54.606806	214.000000	
54.656863	212.000000	
54.706920	206.000000	
54.756978	202.000000	
54.807035	220.000000	
54.857092	184.000000	
54.907149	200.000000	
54.957206	204.000000	
55.007264	201.000000	
55.057321	183.000000	
55.107378	196.000000	
55.157435	160.000000	
55.207493	158.000000	
55.257550	171.000000	
55.307607	176.000000	
55.357664	162.000000	
55.407721	157.000000	
55.457779	155.000000	
55.507836	145.000000	
55.557893	159.000000	
55.607950	149.000000	
55.658008	158.000000	
55.708065	172.000000	
55.758122	185.000000	
55.808179	190.000000	
55.858236	180.000000	
55.908294	203.000000	
55.958351	198.000000	
56.008408	197.000000	
56.058465	198.000000	
56.108523	201.000000	
56.158580	172.000000	
56.208637	173.000000	
56.258694	152.000000	
56.308751	160.000000	
56.358809	160.000000	
56.408866	141.000000	
56.458923	151.000000	
56.508980	136.000000	
56.559038	176.000000	
56.609095	166.000000	
56.659152	164.000000	
56.709209	165.000000	
56.759266	165.000000	
56.809324	167.000000	
56.859381	166.000000	
56.909438	166.000000	
56.959495	171.000000	
57.009553	157.000000	
57.059610	192.000000	
57.109667	195.000000	
57.159724	181.000000	
57.209781	210.000000	
57.259839	199.000000	
57.309896	198.000000	
57.359953	168.000000	
57.410010	199.000000	
57.460068	194.000000	
57.510125	186.000000	
57.560182	203.000000	
57.610239	184.000000	
57.660296	171.000000	
57.710354	179.000000	
57.760411	172.000000	
57.810468	179.000000	
57.860525	163.000000	
57.910583	169.000000	
57.960640	159.000000	
58.010697	166.000000	
58.060754	164.000000	
58.110811	185.000000	
58.160869	191.000000	
58.210926	183.000000	
58.260983	216.000000	
58.311040	190.000000	
58.361097	207.000000	
58.411155	234.000000	
58.461212	207.000000	
58.511269	173.000000	
58.561326	164.000000	
58.611384	178.000000	
58.661441	188.000000	
58.711498	141.000000	
58.761555	140.000000	
58.811612	143.000000	
58.861670	165.000000	
58.911727	129.000000	
58.961784	140.000000	
59.011841	141.000000	
59.061899	143.000000	
59.111956	140.000000	
59.162013	156.000000	
59.212070	147.000000	
59.262127	143.000000	
59.312185	171.000000	
59.362242	175.000000	
59.412299	199.000000	
59.462356	183.000000	
59.512414	184.000000	
59.562471	196.000000	
59.612528	178.000000	
59.662585	177.000000	
59.712642	178.000000	
59.762700	182.000000	
59.812757	163.000000	
59.862814	162.000000	
59.912871	152.000000	
59.962929	166.000000	
60.012986	160.000000	
60.063043	157.000000	
60.113100	192.000000	
60.163157	144.000000	
60.213215	153.000000	
60.263272	155.000000	
60.313329	127.000000	
60.363386	161.000000	
60.413444	191.000000	
60.463501	167.000000	
60.513558	154.000000	
60.563615	212.000000	
60.613672	199.000000	
60.663730	188.000000	
60.713787	217.000000	
60.763844	221.000000	
60.813901	252.000000	
60.863959	211.000000	
60.914016	232.000000	
60.964073	198.000000	
61.014130	195.000000	
61.064187	211.000000	
61.114245	196.000000	
61.164302	182.000000	
61.214359	170.000000	
61.264416	170.000000	
61.314474	177.000000	
61.364531	161.000000	
61.414588	160.000000	
61.464645	173.000000	
61.514702	194.000000	
61.564760	161.000000	
61.614817	152.000000	
61.664874	183.000000	
61.714931	174.000000	
61.764989	186.000000	
61.815046	172.000000	
61.865103	202.000000	
61.915160	194.000000	
61.965217	207.000000	
62.015275	183.000000	
62.065332	204.000000	
62.115389	173.000000	
62.165446	182.000000	
62.215504	188.000000	
62.265561	169.000000	
62.315618	173.000000	
62.365675	168.000000	
62.415732	156.000000	
62.465790	168.000000	
62.515847	166.000000	
62.565904	158.000000	
62.615961	159.000000	
62.666018	157.000000	
62.716076	144.000000	
62.766133	174.000000	
62.816190	160.000000	
62.866247	162.000000	
62.916305	170.000000	
62.966362	158.000000	
63.016419	202.000000	
63.066476	191.000000	
63.116533	169.000000	
63.166591	194.000000	
63.216648	184.000000	
63.266705	196.000000	
63.316762	163.000000	
63.366820	196.000000	
63.416877	183.000000	
63.466934	146.000000	
63.516991	149.000000	
63.567048	123.000000	
63.617106	145.000000	
63.667163	161.000000	
63.717220	139.000000	
63.767277	152.000000	
63.817335	134.000000	
63.867392	133.000000	
63.917449	135.000000	
63.967506	147.000000	
64.017563	150.000000	
64.067621	164.000000	
64.117678	150.000000	
64.167735	179.000000	
64.217792	176.000000	
64.267850	183.000000	
64.317907	186.000000	
64.367964	183.000000	
64.418021	186.000000	
64.468078	189.000000	
64.518136	177.000000	
64.568193	169.000000	
64.618250	159.000000	
64.668307	152.000000	
64.718365	173.000000	
64.768422	149.000000	
64.818479	154.000000	
64.868536	187.000000	
64.918593	154.000000	
64.968651	169.000000	
65.018708	152.000000	
65.068765	157.000000	
65.118822	135.000000	
65.168880	148.000000	
65.218937	165.000000	
65.268994	157.000000	
65.319051	159.000000	
65.369108	172.000000	
65.419166	176.000000	
65.469223	213.000000	
65.519280	165.000000	
65.569337	173.000000	
65.619395	177.000000	
65.669452	184.000000	
65.719509	186.000000	
65.769566	157.000000	
65.819623	178.000000	
65.869681	142.000000	
65.919738	158.000000	
65.969795	164.000000	
66.019852	138.000000	
66.069910	116.000000	
66.119967	149.000000	
66.170024	117.000000	
66.220081	141.000000	
66.270138	103.000000	
66.320196	131.000000	
66.370253	132.000000	
66.420310	132.000000	
66.470367	147.000000	
66.520425	168.000000	
66.570482	162.000000	
66.620539	170.000000	
66.670596	166.000000	
66.720653	182.000000	
66.770711	151.000000	
66.820768	154.000000	
66.870825	135.000000	
66.920882	163.000000	
66.970939	163.000000	
67.020997	140.000000	
67.071054	117.000000	
67.121111	128.000000	
67.171168	119.000000	
67.221226	131.000000	
67.271283	117.000000	
67.321340	123.000000	
67.371397	117.000000	
67.421454	128.000000	
67.471512	115.000000	
67.521569	122.000000	
67.571626	114.000000	
67.621683	124.000000	
67.671741	126.000000	
67.721798	133.000000	
67.771855	128.000000	
67.821912	157.000000	
67.871969	171.000000	
67.922027	179.000000	
67.972084	154.000000	
68.022141	142.000000	
68.072198	153.000000	
68.122256	158.000000	
68.172313	151.000000	
68.222370	134.000000	
68.272427	140.000000	
68.322484	135.000000	
68.372542	126.000000	
68.422599	148.000000	
68.472656	136.000000	
68.522713	141.000000	
68.572771	136.000000	
68.622828	138.000000	
68.672885	98.000000	
68.722942	106.000000	
68.772999	132.000000	
68.823057	96.000000	
68.873114	126.000000	
68.923171	156.000000	
68.973228	143.000000	
69.023286	141.000000	
69.073343	160.000000	
69.123400	164.000000	
69.173457	154.000000	
69.223514	147.000000	
69.273572	167.000000	
69.323629	165.000000	
69.373686	190.000000	
69.423743	152.000000	
69.473801	140.000000	
69.523858	157.000000	
69.573915	122.000000	
69.623972	143.000000	
69.674029	121.000000	
69.724087	114.000000	
69.774144	129.000000	
69.824201	108.000000	
69.874258	135.000000	
69.924316	121.000000	
69.974373	122.000000	
70.024430	129.000000	
70.074487	161.000000	
70.124544	143.000000	
70.174602	153.000000	
70.224659	161.000000	
70.274716	173.000000	
70.324773	144.000000	
70.374831	177.000000	
70.424888	171.000000	
70.474945	155.000000	
70.525002	158.000000	
70.575059	128.000000	
70.625117	140.000000	
70.675174	140.000000	
70.725231	110.000000	
70.775288	115.000000	
70.825346	150.000000	
70.875403	117.000000	
70.925460	111.000000	
70.975517	111.000000	
71.025574	114.000000	
71.075632	120.000000	
71.125689	110.000000	
71.175746	134.000000	
71.225803	101.000000	
71.275860	150.000000	
71.325918	123.000000	
71.375975	136.000000	
71.426032	151.000000	
71.476089	161.000000	
71.526147	140.000000	
71.576204	165.000000	
71.626261	176.000000	
71.676318	159.000000	
71.726375	150.000000	
71.776433	169.000000	
71.826490	133.000000	
71.876547	129.000000	
71.926604	136.000000	
71.976662	137.000000	
72.026719	120.000000	
72.076776	118.000000	
72.126833	117.000000	
72.176890	117.000000	
72.226948	140.000000	
72.277005	112.000000	
72.327062	113.000000	
72.377119	108.000000	
72.427177	137.000000	
72.477234	142.000000	
72.527291	141.000000	
72.577348	149.000000	
72.627405	139.000000	
72.677463	111.000000	
72.727520	130.000000	
72.777577	184.000000	
72.827634	125.000000	
72.877692	132.000000	
72.927749	144.000000	
72.977806	150.000000	
73.027863	124.000000	
73.077920	160.000000	
73.127978	123.000000	
73.178035	148.000000	
73.228092	116.000000	
73.278149	128.000000	
73.328207	120.000000	
73.378264	101.000000	
73.428321	108.000000	
73.478378	106.000000	
73.528435	128.000000	
73.578493	134.000000	
73.628550	139.000000	
73.678607	122.000000	
73.728664	134.000000	
73.778722	129.000000	
73.828779	157.000000	
73.878836	137.000000	
73.928893	171.000000	
73.978950	172.000000	
74.029008	149.000000	
74.079065	144.000000	
74.129122	154.000000	
74.179179	151.000000	
74.229237	130.000000	
74.279294	135.000000	
74.329351	151.000000	
74.379408	121.000000	
74.429465	108.000000	
74.479523	125.000000	
74.529580	98.000000	
74.579637	110.000000	
74.629694	115.000000	
74.679752	85.000000	
74.729809	116.000000	
74.779866	133.000000	
74.829923	133.000000	
74.879980	123.000000	
74.930038	128.000000	
74.980095	132.000000	
75.030152	141.000000	
75.080209	144.000000	
75.130266	128.000000	
75.180324	135.000000	
75.230381	161.000000	
75.280438	142.000000	
75.330495	132.000000	
75.380553	119.000000	
75.430610	155.000000	
75.480667	124.000000	
75.530724	138.000000	
75.580781	131.000000	
75.630839	132.000000	
75.680896	138.000000	
75.730953	123.000000	
75.781010	102.000000	
75.831068	108.000000	
75.881125	132.000000	
75.931182	129.000000	
75.981239	124.000000	
76.031296	124.000000	
76.081354	118.000000	
76.131411	124.000000	
76.181468	117.000000	
76.231525	141.000000	
76.281583	154.000000	
76.331640	161.000000	
76.381697	163.000000	
76.431754	138.000000	
76.481811	148.000000	
76.531869	134.000000	
76.581926	152.000000	
76.631983	149.000000	
76.682040	115.000000	
76.732098	129.000000	
76.782155	125.000000	
76.832212	123.000000	
76.882269	123.000000	
76.932326	130.000000	
76.982384	135.000000	
77.032441	119.000000	
77.082498	138.000000	
77.132555	112.000000	
77.182613	125.000000	
77.232670	127.000000	
77.282727	115.000000	
77.332784	127.000000	
77.382841	147.000000	
77.432899	133.000000	
77.482956	148.000000	
77.533013	122.000000	
77.583070	163.000000	
77.633128	137.000000	
77.683185	136.000000	
77.733242	147.000000	
77.783299	126.000000	
77.833356	120.000000	
77.883414	126.000000	
77.933471	140.000000	
77.983528	97.000000	
78.033585	118.000000	
78.083643	119.000000	
78.133700	122.000000	
78.183757	116.000000	
78.233814	102.000000	
78.283871	123.000000	
78.333929	132.000000	
78.383986	138.000000	
78.434043	110.000000	
78.484100	136.000000	
78.534158	141.000000	
78.584215	143.000000	
78.634272	159.000000	
78.684329	143.000000	
78.734386	190.000000	
78.784444	150.000000	
78.834501	151.000000	
78.884558	161.000000	
78.934615	124.000000	
78.984673	133.000000	
79.034730	103.000000	
79.084787	132.000000	
79.134844	130.000000	
79.184901	111.000000	
79.234959	115.000000	
79.285016	120.000000	
79.335073	108.000000	
79.385130	99.000000	
79.435187	110.000000	
79.485245	140.000000	
79.535302	109.000000	
79.585359	113.000000	
79.635416	130.000000	
79.685474	116.000000	
79.735531	140.000000	
79.785588	115.000000	
79.835645	137.000000	
79.885702	154.000000	
79.935760	128.000000	
79.985817	150.000000	
80.035874	135.000000	
